# Cosmic optical and infraraed bachground best fit model from Dole et al. 2006, fig 14
# wavelength [mu m], spectral energy density [W / m^2 / sr]
0.1	1.81888e-09
0.107601	1.88152e-09
0.11823	1.99076e-09
0.131275	2.15443e-09
0.147293	2.30539e-09
0.161842	2.41186e-09
0.175976	2.55189e-09
0.195393	2.7307e-09
0.216952	2.92204e-09
0.243424	3.12679e-09
0.270283	3.34588e-09
0.300105	3.58032e-09
0.333217	3.83119e-09
0.369983	4.19323e-09
0.415128	4.53798e-09
0.465781	4.96682e-09
0.517174	5.31484e-09
0.592553	5.88312e-09
0.644304	6.29535e-09
0.707946	6.73645e-09
0.786058	7.12756e-09
0.854709	7.54138e-09
0.939133	7.88967e-09
1.01052	8.34773e-09
1.11034	8.53832e-09
1.24582	8.83239e-09
1.38328	8.93265e-09
1.55206	8.73326e-09
1.70537	8.63524e-09
1.93359	8.44249e-09
2.10246	7.88967e-09
2.28608	7.29029e-09
2.48573	6.73645e-09
2.70283	6.08574e-09
2.93888	5.5603e-09
3.19555	4.85595e-09
3.47463	4.28897e-09
3.69983	3.83119e-09
3.98107	3.54013e-09
4.19495	3.16228e-09
4.42033	2.70005e-09
4.60931	2.46693e-09
4.90805	2.22864e-09
5.22615	1.99076e-09
5.50692	1.79846e-09
5.86384	1.60651e-09
6.11454	1.45133e-09
6.51083	1.31113e-09
6.78919	1.18448e-09
7.15394	1.08222e-09
7.4598	1e-09
7.77874	9.03405e-10
7.94328	8.63524e-10
8.37003	9.77679e-10
8.63701	1.0945e-09
9.10104	1.23919e-09
9.49014	1.37169e-09
10.1052	1.51835e-09
10.6481	1.62474e-09
11.4575	1.73859e-09
12.2001	1.88152e-09
13.2656	1.94633e-09
14.7293	1.96842e-09
16.5265	2.03621e-09
18.35	2.01336e-09
20.8057	1.99076e-09
24.089	2.03621e-09
26.1928	2.22864e-09
28.4804	2.43924e-09
30.9677	2.7307e-09
35.1119	3.02268e-09
39.8107	3.46111e-09
45.6132	4.00812e-09
51.7174	4.58949e-09
58.6384	5.13788e-09
67.8919	5.9499e-09
74.598	6.66085e-09
82.8289	7.88967e-09
89.1251	9.03405e-09
100	1.04618e-08
115.781	1.10692e-08
134.052	1.19793e-08
147.293	1.23919e-08
175.976	1.23919e-08
205.891	1.23919e-08
216.952	1.29642e-08
235.9	7.80112e-09
256.502	8.53832e-09
278.904	7.29029e-09
293.888	6.01744e-09
312.935	5.62341e-09
336.723	5.9499e-09
347.463	5.43618e-09
362.319	5.0232e-09
373.876	4.38689e-09
381.784	4.53798e-09
406.528	3.58032e-09
432.876	3.46111e-09
442.033	3.12679e-09
465.781	2.7307e-09
495.969	2.66975e-09
517.174	1.53559e-09
562.341	9.45127e-10
624.388	9.03405e-10
657.933	8.1614e-10
693.281	7.04757e-10
722.921	5.68725e-10
761.76	4.64159e-10
794.328	3.83119e-10
845.81	3.05699e-10
910.104	2.55189e-10
949.014	2.22864e-10
1000	1.6807e-10
